# PBI辐射计算结果 - CLI版本
# 生成时间: 2025-06-19 21:29:34.393265

# 输入参数:
# initial_energy: 3.0
# thickness: 0.0
# density: 1.947
# ionization_energy: 12.0
# g_factor: 0.17
# max_radius: 100.0
# save: True

# SRIM能量损失分析:
# 初始能量: 3.0
# 最终能量: 3.0
# 能量损失: 0.0
# 损失百分比: 0.0
# 密度修正因子: 1.298
# 修正后阻止本领: 6704.17

# 分析结果:
# PBI分子数密度: 3.806764e+00 分子/nm³
# 径迹中心温度: 3,350 K
# 总沉积能量: 1.671808e+00 keV

径向距离_nm	原始剂量_keV_nm3	归一化剂量_keV_nm3	温度_K	单原子能量_eV
1.000000e+00	5.802175e-02	3.955473e-02	3.349539e+03	4.233820e-01
1.003077e+00	5.766955e-02	3.931462e-02	3.329207e+03	4.208120e-01
1.006163e+00	5.731948e-02	3.907597e-02	3.308997e+03	4.182575e-01
1.009259e+00	5.697152e-02	3.883876e-02	3.288910e+03	4.157184e-01
1.012364e+00	5.662566e-02	3.860298e-02	3.268944e+03	4.131947e-01
1.015479e+00	5.628189e-02	3.836862e-02	3.249098e+03	4.106863e-01
1.018604e+00	5.594020e-02	3.813568e-02	3.229373e+03	4.081930e-01
1.021738e+00	5.560057e-02	3.790415e-02	3.209767e+03	4.057147e-01
1.024882e+00	5.526300e-02	3.767402e-02	3.190279e+03	4.032515e-01
1.028035e+00	5.492746e-02	3.744528e-02	3.170909e+03	4.008031e-01
1.031198e+00	5.459395e-02	3.721792e-02	3.151656e+03	3.983695e-01
1.034371e+00	5.426246e-02	3.699193e-02	3.132519e+03	3.959506e-01
1.037554e+00	5.393297e-02	3.676731e-02	3.113498e+03	3.935463e-01
1.040746e+00	5.360547e-02	3.654405e-02	3.094592e+03	3.911566e-01
1.043949e+00	5.327995e-02	3.632214e-02	3.075800e+03	3.887813e-01
1.047161e+00	5.295640e-02	3.610156e-02	3.057121e+03	3.864203e-01
1.050383e+00	5.263481e-02	3.588232e-02	3.038556e+03	3.840737e-01
1.053615e+00	5.231515e-02	3.566441e-02	3.020103e+03	3.817412e-01
1.056856e+00	5.199743e-02	3.544781e-02	3.001761e+03	3.794228e-01
1.060108e+00	5.168163e-02	3.523253e-02	2.983530e+03	3.771184e-01
1.063370e+00	5.136774e-02	3.501854e-02	2.965410e+03	3.748280e-01
1.066642e+00	5.105575e-02	3.480585e-02	2.947398e+03	3.725514e-01
1.069924e+00	5.074564e-02	3.459444e-02	2.929496e+03	3.702885e-01
1.073216e+00	5.043741e-02	3.438431e-02	2.911702e+03	3.680394e-01
1.076518e+00	5.013104e-02	3.417545e-02	2.894016e+03	3.658038e-01
1.079830e+00	4.982653e-02	3.396786e-02	2.876437e+03	3.635818e-01
1.083153e+00	4.952385e-02	3.376152e-02	2.858963e+03	3.613732e-01
1.086486e+00	4.922301e-02	3.355642e-02	2.841596e+03	3.591779e-01
1.089829e+00	4.892398e-02	3.335257e-02	2.824334e+03	3.569960e-01
1.093182e+00	4.862676e-02	3.314995e-02	2.807175e+03	3.548272e-01
1.096546e+00	4.833134e-02	3.294856e-02	2.790121e+03	3.526715e-01
1.099920e+00	4.803771e-02	3.274838e-02	2.773170e+03	3.505289e-01
1.103304e+00	4.774585e-02	3.254941e-02	2.756321e+03	3.483992e-01
1.106699e+00	4.745576e-02	3.235165e-02	2.739575e+03	3.462824e-01
1.110104e+00	4.716742e-02	3.215509e-02	2.722929e+03	3.441784e-01
1.113519e+00	4.688083e-02	3.195971e-02	2.706384e+03	3.420872e-01
1.116946e+00	4.659597e-02	3.176551e-02	2.689940e+03	3.400086e-01
1.120382e+00	4.631283e-02	3.157249e-02	2.673594e+03	3.379425e-01
1.123830e+00	4.603141e-02	3.138064e-02	2.657348e+03	3.358890e-01
1.127287e+00	4.575169e-02	3.118995e-02	2.641200e+03	3.338479e-01
1.130756e+00	4.547366e-02	3.100041e-02	2.625150e+03	3.318191e-01
1.134235e+00	4.519731e-02	3.081202e-02	2.609196e+03	3.298026e-01
1.137725e+00	4.492263e-02	3.062476e-02	2.593340e+03	3.277983e-01
1.141226e+00	4.464962e-02	3.043864e-02	2.577579e+03	3.258061e-01
1.144737e+00	4.437826e-02	3.025365e-02	2.561913e+03	3.238260e-01
1.148259e+00	4.410854e-02	3.006978e-02	2.546343e+03	3.218579e-01
1.151793e+00	4.384045e-02	2.988702e-02	2.530866e+03	3.199017e-01
1.155336e+00	4.357399e-02	2.970536e-02	2.515484e+03	3.179573e-01
1.158891e+00	4.330913e-02	2.952481e-02	2.500194e+03	3.160247e-01
1.162457e+00	4.304588e-02	2.934534e-02	2.484997e+03	3.141038e-01
1.166034e+00	4.278423e-02	2.916697e-02	2.469892e+03	3.121945e-01
1.169622e+00	4.252416e-02	2.898967e-02	2.454878e+03	3.102967e-01
1.173220e+00	4.226566e-02	2.881344e-02	2.439955e+03	3.084105e-01
1.176830e+00	4.200872e-02	2.863829e-02	2.425123e+03	3.065357e-01
1.180451e+00	4.175335e-02	2.846419e-02	2.410380e+03	3.046722e-01
1.184083e+00	4.149951e-02	2.829115e-02	2.395726e+03	3.028200e-01
1.187727e+00	4.124722e-02	2.811915e-02	2.381161e+03	3.009790e-01
1.191381e+00	4.099645e-02	2.794820e-02	2.366685e+03	2.991491e-01
1.195047e+00	4.074720e-02	2.777828e-02	2.352296e+03	2.973304e-01
1.198724e+00	4.049946e-02	2.760938e-02	2.337994e+03	2.955226e-01
1.202412e+00	4.025321e-02	2.744152e-02	2.323779e+03	2.937258e-01
1.206112e+00	4.000846e-02	2.727466e-02	2.309649e+03	2.919398e-01
1.209823e+00	3.976519e-02	2.710882e-02	2.295606e+03	2.901647e-01
1.213545e+00	3.952340e-02	2.694398e-02	2.281647e+03	2.884004e-01
1.217279e+00	3.928307e-02	2.678014e-02	2.267773e+03	2.866467e-01
1.221025e+00	3.904419e-02	2.661730e-02	2.253983e+03	2.849036e-01
1.224782e+00	3.880676e-02	2.645544e-02	2.240276e+03	2.831711e-01
1.228550e+00	3.857077e-02	2.629456e-02	2.226653e+03	2.814491e-01
1.232330e+00	3.833621e-02	2.613465e-02	2.213112e+03	2.797375e-01
1.236122e+00	3.810306e-02	2.597571e-02	2.199653e+03	2.780362e-01
1.239926e+00	3.787133e-02	2.581774e-02	2.186275e+03	2.763453e-01
1.243741e+00	3.764101e-02	2.566072e-02	2.172979e+03	2.746646e-01
1.247567e+00	3.741208e-02	2.550465e-02	2.159763e+03	2.729941e-01
1.251406e+00	3.718453e-02	2.534953e-02	2.146627e+03	2.713338e-01
1.255257e+00	3.695837e-02	2.519534e-02	2.133570e+03	2.696834e-01
1.259119e+00	3.673357e-02	2.504210e-02	2.120593e+03	2.680431e-01
1.262993e+00	3.651013e-02	2.488978e-02	2.107694e+03	2.664127e-01
1.266879e+00	3.628805e-02	2.473838e-02	2.094874e+03	2.647922e-01
1.270777e+00	3.606732e-02	2.458790e-02	2.082131e+03	2.631815e-01
1.274687e+00	3.584792e-02	2.443833e-02	2.069465e+03	2.615806e-01
1.278609e+00	3.562985e-02	2.428967e-02	2.056876e+03	2.599893e-01
1.282543e+00	3.541310e-02	2.414191e-02	2.044364e+03	2.584077e-01
1.286490e+00	3.519767e-02	2.399504e-02	2.031927e+03	2.568357e-01
1.290448e+00	3.498354e-02	2.384906e-02	2.019566e+03	2.552732e-01
1.294419e+00	3.477071e-02	2.370397e-02	2.007279e+03	2.537202e-01
1.298401e+00	3.455917e-02	2.355976e-02	1.995067e+03	2.521766e-01
1.302396e+00	3.434891e-02	2.341642e-02	1.982929e+03	2.506424e-01
1.306404e+00	3.413992e-02	2.327395e-02	1.970864e+03	2.491174e-01
1.310423e+00	3.393221e-02	2.313234e-02	1.958873e+03	2.476017e-01
1.314455e+00	3.372575e-02	2.299159e-02	1.946954e+03	2.460952e-01
1.318500e+00	3.352054e-02	2.285170e-02	1.935108e+03	2.445978e-01
1.322557e+00	3.331657e-02	2.271265e-02	1.923333e+03	2.431094e-01
1.326626e+00	3.311384e-02	2.257445e-02	1.911630e+03	2.416301e-01
1.330708e+00	3.291234e-02	2.243708e-02	1.899997e+03	2.401598e-01
1.334802e+00	3.271207e-02	2.230055e-02	1.888436e+03	2.386984e-01
1.338909e+00	3.251300e-02	2.216484e-02	1.876944e+03	2.372458e-01
1.343029e+00	3.231514e-02	2.202996e-02	1.865522e+03	2.358021e-01
1.347161e+00	3.211849e-02	2.189589e-02	1.854169e+03	2.343671e-01
1.351306e+00	3.192302e-02	2.176264e-02	1.842885e+03	2.329408e-01
1.355464e+00	3.172874e-02	2.163019e-02	1.831669e+03	2.315231e-01
1.359635e+00	3.153564e-02	2.149855e-02	1.820522e+03	2.301140e-01
1.363818e+00	3.134371e-02	2.136771e-02	1.809441e+03	2.287135e-01
1.368015e+00	3.115294e-02	2.123765e-02	1.798429e+03	2.273215e-01
1.372224e+00	3.096333e-02	2.110839e-02	1.787483e+03	2.259379e-01
1.376446e+00	3.077486e-02	2.097991e-02	1.776603e+03	2.245627e-01
1.380681e+00	3.058755e-02	2.085221e-02	1.765789e+03	2.231959e-01
1.384929e+00	3.040136e-02	2.072529e-02	1.755041e+03	2.218373e-01
1.389191e+00	3.021631e-02	2.059913e-02	1.744358e+03	2.204870e-01
1.393465e+00	3.003238e-02	2.047374e-02	1.733740e+03	2.191448e-01
1.397753e+00	2.984956e-02	2.034911e-02	1.723186e+03	2.178108e-01
1.402053e+00	2.966785e-02	2.022524e-02	1.712696e+03	2.164849e-01
1.406367e+00	2.948725e-02	2.010212e-02	1.702270e+03	2.151670e-01
1.410694e+00	2.930774e-02	1.997974e-02	1.691907e+03	2.138572e-01
1.415035e+00	2.912932e-02	1.985811e-02	1.681607e+03	2.125552e-01
1.419389e+00	2.895198e-02	1.973721e-02	1.671369e+03	2.112612e-01
1.423756e+00	2.877572e-02	1.961705e-02	1.661194e+03	2.099750e-01
1.428137e+00	2.860052e-02	1.949761e-02	1.651080e+03	2.086966e-01
1.432531e+00	2.842639e-02	1.937891e-02	1.641028e+03	2.074260e-01
1.436939e+00	2.825332e-02	1.926092e-02	1.631036e+03	2.061631e-01
1.441360e+00	2.808129e-02	1.914364e-02	1.621105e+03	2.049078e-01
1.445795e+00	2.791031e-02	1.902708e-02	1.611235e+03	2.036602e-01
1.450244e+00	2.774037e-02	1.891123e-02	1.601424e+03	2.024201e-01
1.454706e+00	2.757145e-02	1.879608e-02	1.591673e+03	2.011876e-01
1.459182e+00	2.740356e-02	1.868162e-02	1.581981e+03	1.999625e-01
1.463672e+00	2.723670e-02	1.856786e-02	1.572348e+03	1.987449e-01
1.468175e+00	2.707084e-02	1.845480e-02	1.562773e+03	1.975346e-01
1.472692e+00	2.690599e-02	1.834241e-02	1.553256e+03	1.963317e-01
1.477224e+00	2.674214e-02	1.823071e-02	1.543797e+03	1.951361e-01
1.481769e+00	2.657928e-02	1.811969e-02	1.534396e+03	1.939478e-01
1.486328e+00	2.641741e-02	1.800934e-02	1.525052e+03	1.927666e-01
1.490902e+00	2.625653e-02	1.789966e-02	1.515764e+03	1.915926e-01
1.495489e+00	2.609662e-02	1.779065e-02	1.506532e+03	1.904258e-01
1.500090e+00	2.593768e-02	1.768230e-02	1.497357e+03	1.892660e-01
1.504706e+00	2.577971e-02	1.757460e-02	1.488237e+03	1.881133e-01
1.509336e+00	2.562269e-02	1.746756e-02	1.479173e+03	1.869676e-01
1.513980e+00	2.546663e-02	1.736117e-02	1.470164e+03	1.858288e-01
1.518638e+00	2.531152e-02	1.725543e-02	1.461209e+03	1.846969e-01
1.523311e+00	2.515734e-02	1.715032e-02	1.452309e+03	1.835719e-01
1.527998e+00	2.500411e-02	1.704586e-02	1.443463e+03	1.824538e-01
1.532699e+00	2.485180e-02	1.694203e-02	1.434670e+03	1.813424e-01
1.537415e+00	2.470042e-02	1.683883e-02	1.425931e+03	1.802378e-01
1.542146e+00	2.454995e-02	1.673625e-02	1.417245e+03	1.791398e-01
1.546891e+00	2.440040e-02	1.663430e-02	1.408611e+03	1.780486e-01
1.551650e+00	2.425176e-02	1.653297e-02	1.400031e+03	1.769640e-01
1.556425e+00	2.410402e-02	1.643225e-02	1.391502e+03	1.758859e-01
1.561214e+00	2.395718e-02	1.633215e-02	1.383025e+03	1.748144e-01
1.566017e+00	2.381123e-02	1.623265e-02	1.374599e+03	1.737494e-01
1.570836e+00	2.366616e-02	1.613375e-02	1.366224e+03	1.726909e-01
1.575669e+00	2.352198e-02	1.603546e-02	1.357901e+03	1.716388e-01
1.580517e+00	2.337867e-02	1.593776e-02	1.349628e+03	1.705930e-01
1.585380e+00	2.323623e-02	1.584066e-02	1.341405e+03	1.695537e-01
1.590258e+00	2.309466e-02	1.574415e-02	1.333232e+03	1.685206e-01
1.595151e+00	2.295394e-02	1.564822e-02	1.325109e+03	1.674938e-01
1.600059e+00	2.281409e-02	1.555287e-02	1.317035e+03	1.664733e-01
1.604983e+00	2.267508e-02	1.545811e-02	1.309010e+03	1.654589e-01
1.609921e+00	2.253691e-02	1.536392e-02	1.301034e+03	1.644508e-01
1.614874e+00	2.239958e-02	1.527030e-02	1.293106e+03	1.634487e-01
1.619843e+00	2.226309e-02	1.517725e-02	1.285226e+03	1.624527e-01
1.624827e+00	2.212743e-02	1.508476e-02	1.277395e+03	1.614628e-01
1.629827e+00	2.199259e-02	1.499284e-02	1.269611e+03	1.604789e-01
1.634841e+00	2.185857e-02	1.490147e-02	1.261874e+03	1.595009e-01
1.639872e+00	2.172536e-02	1.481066e-02	1.254184e+03	1.585289e-01
1.644917e+00	2.159296e-02	1.472041e-02	1.246541e+03	1.575628e-01
1.649979e+00	2.146137e-02	1.463070e-02	1.238944e+03	1.566026e-01
1.655055e+00	2.133058e-02	1.454153e-02	1.231393e+03	1.556482e-01
1.660148e+00	2.120058e-02	1.445291e-02	1.223889e+03	1.546996e-01
1.665256e+00	2.107137e-02	1.436482e-02	1.216429e+03	1.537568e-01
1.670380e+00	2.094294e-02	1.427727e-02	1.209016e+03	1.528197e-01
1.675519e+00	2.081530e-02	1.419025e-02	1.201647e+03	1.518882e-01
1.680675e+00	2.068843e-02	1.410377e-02	1.194323e+03	1.509625e-01
1.685846e+00	2.056233e-02	1.401780e-02	1.187043e+03	1.500424e-01
1.691033e+00	2.043700e-02	1.393236e-02	1.179808e+03	1.491278e-01
1.696236e+00	2.031243e-02	1.384744e-02	1.172617e+03	1.482188e-01
1.701455e+00	2.018862e-02	1.376303e-02	1.165469e+03	1.473154e-01
1.706690e+00	2.006555e-02	1.367914e-02	1.158365e+03	1.464174e-01
1.711942e+00	1.994324e-02	1.359575e-02	1.151304e+03	1.455249e-01
1.717209e+00	1.982167e-02	1.351288e-02	1.144286e+03	1.446378e-01
1.722493e+00	1.970084e-02	1.343050e-02	1.137310e+03	1.437561e-01
1.727793e+00	1.958074e-02	1.334863e-02	1.130377e+03	1.428797e-01
1.733109e+00	1.946138e-02	1.326725e-02	1.123486e+03	1.420087e-01
1.738442e+00	1.934273e-02	1.318637e-02	1.116637e+03	1.411430e-01
1.743791e+00	1.922481e-02	1.310598e-02	1.109830e+03	1.402825e-01
1.749156e+00	1.910761e-02	1.302608e-02	1.103064e+03	1.394273e-01
1.754538e+00	1.899112e-02	1.294667e-02	1.096339e+03	1.385773e-01
1.759936e+00	1.887533e-02	1.286774e-02	1.089655e+03	1.377324e-01
1.765352e+00	1.876025e-02	1.278928e-02	1.083011e+03	1.368927e-01
1.770783e+00	1.864587e-02	1.271131e-02	1.076408e+03	1.360580e-01
1.776232e+00	1.853219e-02	1.263381e-02	1.069845e+03	1.352285e-01
1.781697e+00	1.841919e-02	1.255678e-02	1.063322e+03	1.344040e-01
1.787179e+00	1.830689e-02	1.248021e-02	1.056839e+03	1.335845e-01
1.792678e+00	1.819526e-02	1.240412e-02	1.050395e+03	1.327700e-01
1.798194e+00	1.808431e-02	1.232848e-02	1.043990e+03	1.319604e-01
1.803727e+00	1.797404e-02	1.225331e-02	1.037624e+03	1.311557e-01
1.809277e+00	1.786444e-02	1.217859e-02	1.031297e+03	1.303560e-01
1.814844e+00	1.775551e-02	1.210433e-02	1.025008e+03	1.295611e-01
1.820428e+00	1.764723e-02	1.203051e-02	1.018758e+03	1.287710e-01
1.826029e+00	1.753962e-02	1.195715e-02	1.012545e+03	1.279858e-01
1.831647e+00	1.743266e-02	1.188423e-02	1.006370e+03	1.272053e-01
1.837283e+00	1.732635e-02	1.181176e-02	1.000233e+03	1.264295e-01
1.842936e+00	1.722069e-02	1.173973e-02	9.941333e+02	1.256585e-01
1.848607e+00	1.711566e-02	1.166813e-02	9.880706e+02	1.248922e-01
1.854295e+00	1.701128e-02	1.159697e-02	9.820447e+02	1.241305e-01
1.860000e+00	1.690753e-02	1.152624e-02	9.760554e+02	1.233735e-01
1.865723e+00	1.680442e-02	1.145595e-02	9.701026e+02	1.226210e-01
1.871464e+00	1.670193e-02	1.138608e-02	9.641859e+02	1.218732e-01
1.877222e+00	1.660006e-02	1.131663e-02	9.583053e+02	1.211299e-01
1.882998e+00	1.649881e-02	1.124761e-02	9.524604e+02	1.203911e-01
1.888792e+00	1.639818e-02	1.117901e-02	9.466510e+02	1.196568e-01
1.894604e+00	1.629816e-02	1.111082e-02	9.408770e+02	1.189269e-01
1.900433e+00	1.619875e-02	1.104305e-02	9.351381e+02	1.182015e-01
1.906280e+00	1.609994e-02	1.097569e-02	9.294341e+02	1.174805e-01
1.912146e+00	1.600174e-02	1.090874e-02	9.237648e+02	1.167639e-01
1.918029e+00	1.590413e-02	1.084220e-02	9.181299e+02	1.160517e-01
1.923931e+00	1.580712e-02	1.077606e-02	9.125294e+02	1.153438e-01
1.929851e+00	1.571069e-02	1.071033e-02	9.069629e+02	1.146402e-01
1.935788e+00	1.561485e-02	1.064500e-02	9.014302e+02	1.139408e-01
1.941745e+00	1.551960e-02	1.058006e-02	8.959313e+02	1.132458e-01
1.947719e+00	1.542492e-02	1.051552e-02	8.904657e+02	1.125549e-01
1.953712e+00	1.533082e-02	1.045137e-02	8.850334e+02	1.118683e-01
1.959723e+00	1.523730e-02	1.038761e-02	8.796342e+02	1.111858e-01
1.965753e+00	1.514434e-02	1.032423e-02	8.742678e+02	1.105075e-01
1.971802e+00	1.505194e-02	1.026125e-02	8.689341e+02	1.098333e-01
1.977869e+00	1.496011e-02	1.019864e-02	8.636328e+02	1.091632e-01
1.983954e+00	1.486884e-02	1.013642e-02	8.583637e+02	1.084972e-01
1.990059e+00	1.477813e-02	1.007458e-02	8.531267e+02	1.078353e-01
1.996182e+00	1.468796e-02	1.001311e-02	8.479216e+02	1.071773e-01
2.002324e+00	1.459834e-02	9.952017e-03	8.427481e+02	1.065234e-01
2.008485e+00	1.450927e-02	9.891296e-03	8.376061e+02	1.058735e-01
2.014665e+00	1.442074e-02	9.830943e-03	8.324954e+02	1.052275e-01
2.020864e+00	1.433275e-02	9.770958e-03	8.274158e+02	1.045854e-01
2.027082e+00	1.424530e-02	9.711338e-03	8.223671e+02	1.039473e-01
2.033319e+00	1.415838e-02	9.652081e-03	8.173492e+02	1.033130e-01
2.039575e+00	1.407198e-02	9.593184e-03	8.123617e+02	1.026826e-01
2.045851e+00	1.398611e-02	9.534646e-03	8.074046e+02	1.020560e-01
2.052145e+00	1.390077e-02	9.476464e-03	8.024777e+02	1.014332e-01
2.058460e+00	1.381594e-02	9.418636e-03	7.975807e+02	1.008143e-01
2.064793e+00	1.373163e-02	9.361160e-03	7.927136e+02	1.001991e-01
2.071146e+00	1.364783e-02	9.304033e-03	7.878761e+02	9.958759e-02
2.077519e+00	1.356455e-02	9.247255e-03	7.830680e+02	9.897985e-02
2.083911e+00	1.348177e-02	9.190821e-03	7.782892e+02	9.837581e-02
2.090323e+00	1.339949e-02	9.134732e-03	7.735394e+02	9.777544e-02
2.096755e+00	1.331771e-02	9.078983e-03	7.688186e+02	9.717873e-02
2.103207e+00	1.323644e-02	9.023574e-03	7.641265e+02	9.658564e-02
2.109678e+00	1.315565e-02	8.968503e-03	7.594630e+02	9.599617e-02
2.116169e+00	1.307536e-02	8.913766e-03	7.548278e+02	9.541029e-02
2.122680e+00	1.299556e-02	8.859363e-03	7.502209e+02	9.482797e-02
2.129212e+00	1.291624e-02	8.805290e-03	7.456420e+02	9.424920e-02
2.135763e+00	1.283741e-02	8.751547e-03	7.410909e+02	9.367395e-02
2.142334e+00	1.275905e-02	8.698131e-03	7.365676e+02	9.310220e-02
2.148926e+00	1.268118e-02	8.645041e-03	7.320718e+02	9.253393e-02
2.155538e+00	1.260377e-02	8.592273e-03	7.276034e+02	9.196912e-02
2.162170e+00	1.252684e-02	8.539827e-03	7.231622e+02	9.140775e-02
2.168823e+00	1.245038e-02	8.487699e-03	7.187480e+02	9.084980e-02
2.175496e+00	1.237438e-02	8.435890e-03	7.143607e+02	9.029524e-02
2.182190e+00	1.229884e-02	8.384395e-03	7.100001e+02	8.974406e-02
2.188905e+00	1.222377e-02	8.333214e-03	7.056660e+02	8.919624e-02
2.195640e+00	1.214915e-02	8.282345e-03	7.013584e+02	8.865175e-02
2.202395e+00	1.207498e-02	8.231786e-03	6.970769e+02	8.811057e-02
2.209172e+00	1.200127e-02	8.181534e-03	6.928216e+02	8.757269e-02
2.215969e+00	1.192801e-02	8.131588e-03	6.885921e+02	8.703809e-02
2.222787e+00	1.185519e-02	8.081947e-03	6.843884e+02	8.650674e-02
2.229627e+00	1.178281e-02	8.032607e-03	6.802103e+02	8.597863e-02
2.236487e+00	1.171088e-02	7.983568e-03	6.760576e+02	8.545373e-02
2.243368e+00	1.163938e-02	7.934828e-03	6.719302e+02	8.493202e-02
2.250271e+00	1.156832e-02	7.886384e-03	6.678279e+02	8.441350e-02
2.257195e+00	1.149769e-02	7.838236e-03	6.637507e+02	8.389813e-02
2.264140e+00	1.142750e-02	7.790380e-03	6.596982e+02	8.338590e-02
2.271106e+00	1.135773e-02	7.742816e-03	6.556705e+02	8.287679e-02
2.278094e+00	1.128838e-02	7.695542e-03	6.516672e+02	8.237078e-02
2.285104e+00	1.121946e-02	7.648556e-03	6.476883e+02	8.186785e-02
2.292135e+00	1.115095e-02	7.601855e-03	6.437337e+02	8.136799e-02
2.299187e+00	1.108287e-02	7.555439e-03	6.398032e+02	8.087117e-02
2.306262e+00	1.101520e-02	7.509306e-03	6.358966e+02	8.037737e-02
2.313358e+00	1.094794e-02	7.463454e-03	6.320137e+02	7.988658e-02
2.320476e+00	1.088109e-02	7.417881e-03	6.281546e+02	7.939878e-02
2.327616e+00	1.081465e-02	7.372586e-03	6.243189e+02	7.891395e-02
2.334777e+00	1.074861e-02	7.327566e-03	6.205066e+02	7.843208e-02
2.341961e+00	1.068297e-02	7.282821e-03	6.167175e+02	7.795314e-02
2.349167e+00	1.061774e-02	7.238348e-03	6.129515e+02	7.747712e-02
2.356395e+00	1.055290e-02	7.194146e-03	6.092085e+02	7.700399e-02
2.363646e+00	1.048845e-02	7.150214e-03	6.054882e+02	7.653375e-02
2.370918e+00	1.042440e-02	7.106549e-03	6.017906e+02	7.606637e-02
2.378213e+00	1.036074e-02	7.063150e-03	5.981155e+02	7.560184e-02
2.385531e+00	1.029747e-02	7.020015e-03	5.944628e+02	7.514014e-02
2.392871e+00	1.023458e-02	6.977143e-03	5.908324e+02	7.468126e-02
2.400234e+00	1.017208e-02	6.934533e-03	5.872241e+02	7.422516e-02
2.407619e+00	1.010995e-02	6.892182e-03	5.836377e+02	7.377185e-02
2.415027e+00	1.004821e-02	6.850088e-03	5.800732e+02	7.332130e-02
2.422458e+00	9.986839e-03	6.808252e-03	5.765305e+02	7.287349e-02
2.429911e+00	9.925844e-03	6.766670e-03	5.730093e+02	7.242841e-02
2.437388e+00	9.865221e-03	6.725341e-03	5.695095e+02	7.198604e-02
2.444887e+00	9.804966e-03	6.684265e-03	5.660311e+02	7.154637e-02
2.452410e+00	9.745079e-03	6.643438e-03	5.625739e+02	7.110938e-02
2.459956e+00	9.685557e-03	6.602861e-03	5.591377e+02	7.067505e-02
2.467525e+00	9.626397e-03	6.562530e-03	5.557225e+02	7.024336e-02
2.475117e+00	9.567598e-03	6.522446e-03	5.523281e+02	6.981431e-02
2.482733e+00	9.509157e-03	6.482605e-03	5.489544e+02	6.938787e-02
2.490372e+00	9.451073e-03	6.443008e-03	5.456012e+02	6.896403e-02
2.498034e+00	9.393342e-03	6.403651e-03	5.422684e+02	6.854277e-02
2.505720e+00	9.335963e-03	6.364535e-03	5.389560e+02	6.812408e-02
2.513430e+00	9.278933e-03	6.325656e-03	5.356638e+02	6.770794e-02
