# Step Temp Density
700 270.48528115786706394 0.98176613250995281579
800 256.38938884259260931 0.98176613250995281579
900 283.63596958795938008 0.98176613250995281579
1000 298.62183461229432169 0.98176613250995303783
1100 316.72626555886131428 0.98176613250995281579
1200 335.80255613959735683 0.98176613250995281579
1300 360.55768531507493435 0.98176613250995281579
1400 381.20420835555518124 0.98176613250995270477
1500 402.49875103412318822 0.98176613250995270477
1600 423.61409056474275303 0.98176613250995270477
1700 441.53192467702166368 0.98176613250995259374
1800 463.06598109539459074 0.98176613250995270477
1900 480.15989069339889284 0.98176613250995281579
2000 494.7761920462524472 0.98176613250995270477
2100 503.23564269038638486 0.98176613250995281579
2200 506.59024894127554717 0.98176613250995281579
2300 504.90196890473447411 0.98176613250995270477
2400 497.50777854597600935 0.98176613250995270477
2500 494.57893706773353415 0.98176613250995270477
2600 495.58857585802991252 0.98176613250995270477
2700 500.87847970394528829 0.98176613250995270477
2800 504.61387552603423501 0.98176613250995281579
2900 503.57674043403159203 0.98176613250995259374
3000 500.42187413982929911 0.98176613250995270477
3100 496.47257362701861894 0.98176613250995281579
3200 496.46883484478513537 0.98176613250995270477
3300 499.97276542402664745 0.98176613250995281579
3400 501.94104083921672554 0.98176613250995259374
3500 504.3939035711617862 0.98176613250995259374
3600 501.52661544076812561 0.98176613250995270477
3700 497.36346484464326068 0.98176613250995270477
3800 496.71074076981557255 0.98176613250995259374
3900 498.13088455384621511 0.98176613250995259374
4000 501.36968215482903588 0.98176613250995259374
4100 503.86721436414529762 0.98176613250995259374
4200 501.77967761103724342 0.98176613250995270477
4300 498.26306737128442137 0.98176613250995270477
4400 497.16963594726780684 0.98176613250995281579
4500 498.47575297999878785 0.98176613250995281579
4600 500.48868098119589831 0.98176613250995281579
4700 500.76388125606490576 0.98176613250995281579
4800 502.18842528817555149 0.98176613250995281579
4900 499.98742743808855948 0.98176613250995270477
5000 498.67224992952992579 0.98176613250995270477
5100 498.7608409524376043 0.98176613250995259374
5200 498.9479890388537342 0.98176613250995259374
5300 501.877030005137442 0.98176613250995281579
5400 501.01654639531551538 0.98176613250995281579
5500 500.78515427628781254 0.98176613250995259374
5600 498.53967190868365833 0.98176613250995281579
5700 497.6960355863238874 0.98176613250995259374
5800 499.6385236145351314 0.98176613250995270477
5900 502.14811158405171909 0.98176613250995259374
6000 502.98827300302536969 0.98176613250995270477
6100 499.69062208215854071 0.98176613250995281579
6200 498.23362934784807976 0.98176613250995270477
6300 500.16379309238101314 0.98176613250995281579
6400 499.09216040006816684 0.98176613250995270477
6500 500.11023110136682135 0.98176613250995270477
6600 502.73499355410348244 0.98176613250995270477
6700 499.82699900687651962 0.98176613250995259374
6800 499.97720508910941817 0.98176613250995259374
6900 498.30312812061453087 0.98176613250995270477
7000 497.20271344319519358 0.98176613250995270477
7100 500.57815823057813986 0.98176613250995270477
7200 502.29144887545061238 0.98176613250995259374
7300 500.45307444395962193 0.98176613250995281579
7400 501.26865662358085274 0.98176613250995259374
7500 497.71136358559033397 0.98176613250995259374
7600 499.65939690538181139 0.98176613250995259374
7700 500.74364020759816185 0.98176613250995259374
7800 501.67773387587925527 0.98176613250995281579
7900 500.308251693609634 0.98176613250995270477
8000 500.13451841275877996 0.98176613250995281579
8100 499.84180485387150839 0.98176613250995270477
8200 499.54698215872667788 0.98176613250995259374
8300 499.24001914486910891 0.98176613250995270477
8400 500.44377972078439143 0.98176613250995270477
8500 501.03758057432355599 0.98176613250995281579
8600 500.55673948591504541 0.98176613250995259374
8700 500.26633947224985377 0.98176613250995281579
8800 498.76557875698108546 0.98176613250995281579
8900 500.09951783944921999 0.98176613250995281579
9000 498.46893402102915616 0.98176613250995259374
9100 501.79526739333380192 0.98176613250995281579
9200 501.13534007901756695 0.98176613250995270477
9300 499.24061990867159011 0.98176613250995281579
9400 498.96935638471995844 0.98176613250995270477
9500 499.52415895038842564 0.98176613250995270477
9600 499.70723673135319132 0.98176613250995270477
9700 500.57475818569065495 0.98176613250995259374
9800 501.25889029052098067 0.98176613250995259374
9900 500.68376738229164857 0.98176613250995259374
10000 498.59988587448350472 0.98176613250995259374
10100 499.92270394054435201 0.98176613250995270477
10200 499.24351252280604285 0.98176613250995270477
10300 499.34275161401626519 0.98176613250995259374
10400 501.21977368744978776 0.98176613250995259374
10500 500.89973246847063137 0.98176613250995259374
10600 500.33739024669392847 0.98176613250995270477
10700 499.55625847190464128 0.98176613250995270477
10800 499.66488463832610023 0.98176613250995259374
10900 500.54623782482616434 0.98176613250995259374
11000 500.11768640993619783 0.98176613250995259374
11100 499.96900895541602949 0.98176613250995270477
11200 499.75880941916324218 0.98176613250995281579
11300 499.45659414296079603 0.98176613250995270477
11400 500.3302614697502122 0.98176613250995281579
11500 499.30319055622629776 0.98176613250995259374
11600 500.5558917171188682 0.98176613250995259374
11700 500.61703173566712621 0.98176613250995270477
11800 500.82103800471054456 0.98176613250995270477
11900 500.71684345262065108 0.98176613250995270477
12000 497.61743103918979614 0.98176613250995259374
12100 500.04842355979116064 0.98176613250995270477
12200 498.48514480847535424 0.98176613250995270477
12300 501.33949166682481291 0.98176613250995259374
12400 500.17797006333717036 0.98176613250995259374
12500 500.03150997223508512 0.98176613250995270477
12600 499.64446955329020739 0.98176613250995270477
12700 499.33294158692910969 0.98176613250995281579
12800 499.93231552671772988 0.98176613250995270477
12900 499.80978017602342334 0.98176613250995259374
13000 501.01368561670722102 0.98176613250995270477
13100 500.53941223412584804 0.98176613250995259374
13200 498.94181747552653405 0.98176613250995281579
13300 499.83582287103877206 0.98176613250995270477
13400 498.73739661341380724 0.98176613250995270477
13500 500.71061690159166346 0.98176613250995281579
13600 502.04476974170563608 0.98176613250995281579
13700 502.42316052320609288 0.98176613250995281579
13800 498.93475002316444034 0.98176613250995281579
13900 498.60888108499159443 0.98176613250995259374
14000 500.32865820919425914 0.98176613250995259374
14100 500.51089928160979525 0.98176613250995259374
14200 501.08240066358177955 0.98176613250995281579
14300 500.82560266588473041 0.98176613250995281579
14400 499.5170650805039827 0.98176613250995281579
14500 498.84470691833303135 0.98176613250995281579
14600 500.53893563005914302 0.98176613250995281579
14700 501.16114562268364807 0.98176613250995270477
14800 499.23561274474985794 0.98176613250995281579
14900 499.83287310568073281 0.98176613250995281579
15000 500.00360215702943378 0.98176613250995281579
15100 500.05698219804133942 0.98176613250995281579
15200 499.75158706671243181 0.98176613250995270477
15300 500.44524477490637082 0.98176613250995281579
15400 497.85310054562245341 0.98176613250995281579
15500 499.21273215985138449 0.98176613250995259374
15600 499.37236552486115215 0.98176613250995270477
15700 499.76289858473847971 0.98176613250995281579
15800 501.38614326279252964 0.98176613250995270477
15900 499.96490140052554807 0.98176613250995281579
16000 499.72098822784278127 0.98176613250995270477
16100 498.83163656334301095 0.98176613250995270477
16200 500.82788697811804468 0.98176613250995281579
16300 499.62410073458283932 0.98176613250995270477
16400 499.20651761457486373 0.98176613250995281579
16500 500.82905747971312849 0.98176613250995270477
16600 499.38329804314253124 0.98176613250995270477
16700 499.39373766127346244 0.98176613250995259374
16800 500.31760780653786469 0.98176613250995281579
16900 500.42075038706877876 0.98176613250995270477
17000 500.24607042832161596 0.98176613250995270477
17100 499.63734641785379154 0.98176613250995259374
17200 498.59883702817995754 0.98176613250995259374
17300 499.7504123413264665 0.98176613250995281579
17400 498.10201347211301481 0.98176613250995270477
17500 500.9113561808365489 0.98176613250995270477
17600 501.37626865302183887 0.98176613250995270477
17700 499.45304077562991552 0.98176613250995281579
17800 499.60049212836287325 0.98176613250995270477
17900 499.20173498332121653 0.98176613250995259374
18000 499.75921018326476997 0.98176613250995270477
18100 498.88155990047005162 0.98176613250995270477
18200 499.77269229558856978 0.98176613250995270477
18300 501.42414147413199998 0.98176613250995281579
18400 500.22032225128930349 0.98176613250995281579
18500 499.28776479250507236 0.98176613250995281579
18600 499.33344332346854344 0.98176613250995281579
18700 500.5030541035969236 0.98176613250995270477
18800 502.02567767512726959 0.98176613250995270477
18900 500.43983815558891592 0.98176613250995259374
19000 500.41727396446452758 0.98176613250995270477
19100 501.23957619665458196 0.98176613250995270477
19200 499.91903254079318231 0.98176613250995281579
19300 500.1165470982507486 0.98176613250995270477
19400 500.29723231833344244 0.98176613250995281579
19500 501.41800468098398369 0.98176613250995270477
19600 500.89159127659172555 0.98176613250995281579
19700 499.62295667725697967 0.98176613250995259374
19800 499.60285082959524061 0.98176613250995281579
19900 499.81549976015872971 0.98176613250995270477
20000 499.64556459136065314 0.98176613250995259374
20100 499.65364057107200324 0.98176613250995259374
20200 500.0820129493050672 0.98176613250995259374
20300 499.81503251138059341 0.98176613250995270477
20400 500.21418604825942111 0.98176613250995270477
20500 500.17622791262868986 0.98176613250995259374
20600 499.88536482868141775 0.98176613250995270477
20700 500.89668237723941502 0.98176613250995270477
20800 500.3951698954184053 0.98176613250995270477
20900 500.94900954385099112 0.98176613250995259374
21000 500.17215860230589897 0.98176613250995270477
21100 500.22707920239298574 0.98176613250995259374
21200 500.22605765460133398 0.98176613250995270477
21300 500.37061858251468038 0.98176613250995270477
21400 500.19899837220117433 0.98176613250995270477
21500 501.078142190234189 0.98176613250995281579
21600 498.56966236226423916 0.98176613250995281579
21700 499.55177848396812124 0.98176613250995270477
21800 500.07970840751954711 0.98176613250995259374
21900 499.45041258246573079 0.98176613250995259374
22000 500.43095740039098018 0.98176613250995270477
22100 499.42444622274155108 0.98176613250995270477
22200 499.75952768896615908 0.98176613250995270477
22300 499.37930650698029922 0.98176613250995270477
22400 499.65574425495043442 0.98176613250995270477
22500 500.16696079210407788 0.98176613250995281579
22600 499.81422478933234288 0.98176613250995270477
22700 500.59733021437972411 0.98176613250995270477
22800 499.44493064094467627 0.98176613250995259374
22900 498.94585097458462997 0.98176613250995270477
23000 499.11547663816577369 0.98176613250995270477
23100 500.55218219233569243 0.98176613250995259374
23200 500.54549953129389905 0.98176613250995270477
23300 499.47594490347523788 0.98176613250995259374
23400 500.65584546820116429 0.98176613250995270477
23500 499.6220599974152492 0.98176613250995270477
23600 499.79907883023361137 0.98176613250995259374
23700 500.87351475704633685 0.98176613250995270477
23800 499.38765344580599503 0.98176613250995281579
23900 499.88971810133159579 0.98176613250995270477
24000 499.11037126231991579 0.98176613250995270477
24100 499.58814314984903149 0.98176613250995281579
24200 499.84294246924656591 0.98176613250995259374
24300 500.79118297601792165 0.98176613250995259374
24400 501.21731979647631761 0.98176613250995259374
24500 499.69940047039318642 0.98176613250995259374
24600 499.59255282107233143 0.98176613250995270477
24700 499.60698195346964212 0.98176613250995281579
24800 499.75157237645066743 0.98176613250995281579
24900 499.93659851474330935 0.98176613250995281579
25000 500.68050885541697426 0.98176613250995259374
25100 500.30525097136296608 0.98176613250995281579
25200 498.98834084809533351 0.98176613250995270477
25300 499.99924684087966398 0.98176613250995281579
25400 499.07320311412183855 0.98176613250995270477
25500 499.47978564789815437 0.98176613250995270477
25600 500.45341980438024621 0.98176613250995259374
25700 499.6737397151582627 0.98176613250995259374
25800 499.71812364522764938 0.98176613250995270477
25900 499.67799312455628069 0.98176613250995281579
26000 499.74247497273341878 0.98176613250995259374
26100 499.14875534548821179 0.98176613250995281579
26200 500.43709984103600164 0.98176613250995270477
26300 500.33124603003892616 0.98176613250995270477
26400 499.79933483973871944 0.98176613250995281579
26500 499.43978000231464875 0.98176613250995281579
26600 499.64496551312993233 0.98176613250995270477
26700 498.88259233580924956 0.98176613250995281579
26800 500.89887343285528232 0.98176613250995270477
26900 500.4940659899072557 0.98176613250995281579
27000 498.93836119267928098 0.98176613250995270477
27100 499.01684726306302764 0.98176613250995270477
27200 499.75691711891550995 0.98176613250995270477
27300 501.02055321772161278 0.98176613250995270477
27400 499.95508559239578972 0.98176613250995270477
27500 501.10474567859779427 0.98176613250995270477
27600 500.01113338942803921 0.98176613250995281579
27700 499.28210633056062306 0.98176613250995270477
27800 500.22899862283196626 0.98176613250995259374
27900 499.75343783570582445 0.98176613250995259374
28000 499.21603057024276495 0.98176613250995259374
28100 500.24442048502885427 0.98176613250995259374
28200 500.21772105540981102 0.98176613250995259374
28300 500.85839930083579929 0.98176613250995270477
28400 500.89364321876206532 0.98176613250995270477
28500 499.55019949867323703 0.98176613250995281579
28600 500.42587880886304674 0.98176613250995281579
28700 500.36399016609624368 0.98176613250995270477
28800 501.08896307621773758 0.98176613250995270477
28900 500.28149426518223208 0.98176613250995281579
29000 498.399414749601533 0.98176613250995281579
29100 499.00671829123473344 0.98176613250995281579
29200 499.15519122749884673 0.98176613250995259374
29300 499.68718365353191757 0.98176613250995259374
29400 500.70903218170843729 0.98176613250995270477
29500 502.59344640374519031 0.98176613250995270477
29600 500.1696417735846012 0.98176613250995281579
29700 499.22077870938693422 0.98176613250995270477
29800 499.52388503320406699 0.98176613250995270477
29900 499.36966229129956218 0.98176613250995259374
30000 500.71903657040343205 0.98176613250995281579
30100 500.24370859785449284 0.98176613250995270477
30200 499.87936072032391621 0.98176613250995270477
30300 500.32894067125494075 0.98176613250995270477
30400 499.20608215294862475 0.98176613250995259374
30500 499.84044436347522833 0.98176613250995281579
30600 500.58440426493405084 0.98176613250995270477
30700 500.68850421177512544 0.98176613250995259374
30800 500.88280295902063699 0.98176613250995259374
30900 499.34091104868241473 0.98176613250995259374
31000 500.48254100290580482 0.98176613250995259374
31100 500.35299703371526903 0.98176613250995281579
31200 500.09485054556444084 0.98176613250995281579
31300 499.89775526685730256 0.98176613250995259374
31400 500.0705434605957862 0.98176613250995281579
31500 499.92033666388925894 0.98176613250995270477
31600 500.71683065626353937 0.98176613250995270477
31700 499.18364772801146501 0.98176613250995281579
31800 501.75139801962467345 0.98176613250995259374
31900 499.9208520530623332 0.98176613250995270477
32000 500.99016525006987877 0.98176613250995259374
32100 500.83139218435331941 0.98176613250995259374
32200 499.09903367912664862 0.98176613250995270477
32300 499.57697812237182688 0.98176613250995270477
32400 499.3200367170551317 0.98176613250995259374
32500 499.60475312617410282 0.98176613250995270477
32600 501.24939669188535163 0.98176613250995259374
32700 499.80360438408797563 0.98176613250995270477
32800 500.21869868313689267 0.98176613250995259374
32900 499.03987121566132146 0.98176613250995259374
33000 499.25571733963568022 0.98176613250995259374
33100 500.51215938850367593 0.98176613250995270477
33200 499.62620099508734484 0.98176613250995281579
33300 501.16784962627048117 0.98176613250995281579
33400 500.92263620224429133 0.98176613250995281579
33500 500.41268259679003449 0.98176613250995270477
33600 498.10334171211502508 0.98176613250995281579
33700 499.37343140295911326 0.98176613250995259374
33800 499.26073274328928164 0.98176613250995259374
33900 499.60881184143408973 0.98176613250995281579
34000 499.49508673682379367 0.98176613250995259374
34100 500.87217118514433878 0.98176613250995270477
34200 500.79613528755152174 0.98176613250995270477
34300 499.76636830517958288 0.98176613250995259374
34400 499.63934425209788515 0.98176613250995270477
34500 499.80769295833442811 0.98176613250995270477
34600 500.44034525472096675 0.98176613250995270477
34700 499.40200750147238296 0.98176613250995259374
34800 500.1550380981580588 0.98176613250995259374
34900 499.46408317160933166 0.98176613250995270477
35000 499.24850193060507308 0.98176613250995281579
35100 500.20924685061635273 0.98176613250995259374
35200 499.47389904258193383 0.98176613250995259374
35300 500.72487440572854211 0.98176613250995270477
35400 501.07148880937597824 0.98176613250995270477
35500 499.64438330258286669 0.98176613250995259374
35600 500.40179689567162313 0.98176613250995259374
35700 498.88902586659509097 0.98176613250995259374
35800 500.69072477328649029 0.98176613250995259374
35900 499.75939069059728581 0.98176613250995259374
36000 500.95325490667971735 0.98176613250995259374
36100 499.63995225140632783 0.98176613250995270477
36200 499.49407590571030369 0.98176613250995259374
36300 498.39385245795421042 0.98176613250995281579
36400 500.34601348527439768 0.98176613250995270477
36500 501.50793616302843247 0.98176613250995259374
36600 500.56195525719482475 0.98176613250995259374
36700 499.62991143091039703 0.98176613250995259374
36800 498.70570708234930635 0.98176613250995259374
36900 499.15138556727373498 0.98176613250995270477
37000 500.84667190790594304 0.98176613250995259374
37100 500.68628779102112958 0.98176613250995270477
37200 499.8966027623631021 0.98176613250995270477
37300 499.2914554519683179 0.98176613250995270477
37400 498.42380044227320468 0.98176613250995259374
37500 500.65075770528756038 0.98176613250995281579
37600 501.28484436991323037 0.98176613250995259374
37700 500.75044143822140086 0.98176613250995259374
37800 501.20657587415172429 0.98176613250995281579
37900 498.86402626251646097 0.98176613250995270477
38000 498.91971312748393075 0.98176613250995270477
38100 498.71827296809857444 0.98176613250995281579
38200 500.916429675773486 0.98176613250995259374
38300 501.80984320260256482 0.98176613250995281579
38400 499.55030701328564646 0.98176613250995259374
38500 500.33668848308411725 0.98176613250995259374
38600 499.10850286831117728 0.98176613250995270477
38700 499.15281518340930234 0.98176613250995270477
38800 501.04148581356554359 0.98176613250995281579
38900 501.23073221773239538 0.98176613250995281579
39000 499.89518510904395043 0.98176613250995259374
39100 499.54914095240843608 0.98176613250995259374
39200 499.37564999703033664 0.98176613250995259374
39300 498.60346887849834729 0.98176613250995270477
39400 499.30879205487411809 0.98176613250995281579
39500 500.46499816555808593 0.98176613250995270477
39600 499.57802519694416787 0.98176613250995270477
39700 500.34561934849580211 0.98176613250995259374
39800 499.03471549515114702 0.98176613250995270477
39900 499.47875347893000253 0.98176613250995270477
40000 499.50613281112458708 0.98176613250995270477
